3.00000 269.000
3.02000 301.000
3.04000 291.000
3.06000 277.000
3.08000 287.000
3.10000 289.000
3.12000 249.000
3.14000 259.000
3.16000 283.000
3.18000 247.000
3.20000 239.000
3.22000 281.000
3.24000 267.000
3.26000 249.000
3.28000 274.000
3.30000 261.000
3.32000 234.000
3.34000 243.000
3.36000 248.000
3.38000 244.000
3.40000 225.000
3.42000 229.000
3.44000 237.000
3.46000 213.000
3.48000 197.000
3.50000 243.000
3.52000 221.000
3.54000 223.000
3.56000 210.000
3.58000 228.000
3.60000 222.000
3.62000 235.000
3.64000 229.000
3.66000 241.000
3.68000 225.000
3.70000 231.000
3.72000 223.000
3.74000 198.000
3.76000 218.000
3.78000 193.000
3.80000 210.000
3.82000 190.000
3.84000 207.000
3.86000 205.000
3.88000 215.000
3.90000 217.000
3.92000 191.000
3.94000 196.000
3.96000 214.000
3.98000 185.000
4.00000 200.000
4.02000 194.000
4.04000 188.000
4.06000 185.000
4.08000 187.000
4.10000 193.000
4.12000 179.000
4.14000 205.000
4.16000 192.000
4.18000 221.000
4.20000 195.000
4.22000 183.000
4.24000 180.000
4.26000 178.000
4.28000 170.000
4.30000 181.000
4.32000 194.000
4.34000 192.000
4.36000 183.000
4.38000 184.000
4.40000 180.000
4.42000 181.000
4.44000 168.000
4.46000 202.000
4.48000 166.000
4.50000 155.000
4.52000 181.000
4.54000 167.000
4.56000 171.000
4.58000 179.000
4.60000 176.000
4.62000 188.000
4.64000 181.000
4.66000 176.000
4.68000 177.000
4.70000 181.000
4.72000 170.000
4.74000 156.000
4.76000 183.000
4.78000 212.000
4.80000 171.000
4.82000 153.000
4.84000 187.000
4.86000 166.000
4.88000 170.000
4.90000 165.000
4.92000 160.000
4.94000 148.000
4.96000 173.000
4.98000 185.000
5.00000 145.000
5.02000 153.000
5.04000 177.000
5.06000 163.000
5.08000 154.000
5.10000 160.000
5.12000 165.000
5.14000 146.000
5.16000 136.000
5.18000 180.000
5.20000 193.000
5.22000 168.000
5.24000 168.000
5.26000 173.000
5.28000 177.000
5.30000 177.000
5.32000 169.000
5.34000 186.000
5.36000 161.000
5.38000 157.000
5.40000 160.000
5.42000 168.000
5.44000 162.000
5.46000 154.000
5.48000 170.000
5.50000 179.000
5.52000 184.000
5.54000 159.000
5.56000 179.000
5.58000 206.000
5.60000 174.000
5.62000 179.000
5.64000 165.000
5.66000 171.000
5.68000 166.000
5.70000 167.000
5.72000 187.000
5.74000 182.000
5.76000 184.000
5.78000 163.000
5.80000 189.000
5.82000 159.000
5.84000 157.000
5.86000 156.000
5.88000 173.000
5.90000 180.000
5.92000 173.000
5.94000 160.000
5.96000 164.000
5.98000 185.000
6.00000 168.000
6.02000 186.000
6.04000 168.000
6.06000 172.000
6.08000 172.000
6.10000 188.000
6.12000 196.000
6.14000 173.000
6.16000 191.000
6.18000 184.000
6.20000 167.000
6.22000 159.000
6.24000 190.000
6.26000 198.000
6.28000 199.000
6.30000 178.000
6.32000 187.000
6.34000 190.000
6.36000 185.000
6.38000 178.000
6.40000 190.000
6.42000 172.000
6.44000 160.000
6.46000 166.000
6.48000 177.000
6.50000 177.000
6.52000 181.000
6.54000 180.000
6.56000 178.000
6.58000 176.000
6.60000 194.000
6.62000 158.000
6.64000 173.000
6.66000 176.000
6.68000 192.000
6.70000 174.000
6.72000 188.000
6.74000 196.000
6.76000 213.000
6.78000 188.000
6.80000 190.000
6.82000 193.000
6.84000 183.000
6.86000 162.000
6.88000 185.000
6.90000 192.000
6.92000 205.000
6.94000 186.000
6.96000 175.000
6.98000 175.000
7.00000 177.000
7.02000 193.000
7.04000 171.000
7.06000 181.000
7.08000 186.000
7.10000 178.000
7.12000 187.000
7.14000 165.000
7.16000 188.000
7.18000 208.000
7.20000 190.000
7.22000 224.000
7.24000 208.000
7.26000 211.000
7.28000 187.000
7.30000 190.000
7.32000 182.000
7.34000 193.000
7.36000 188.000
7.38000 200.000
7.40000 187.000
7.42000 206.000
7.44000 193.000
7.46000 199.000
7.48000 193.000
7.50000 215.000
7.52000 209.000
7.54000 206.000
7.56000 211.000
7.58000 205.000
7.60000 208.000
7.62000 208.000
7.64000 198.000
7.66000 215.000
7.68000 199.000
7.70000 196.000
7.72000 213.000
7.74000 206.000
7.76000 192.000
7.78000 200.000
7.80000 196.000
7.82000 206.000
7.84000 209.000
7.86000 214.000
7.88000 208.000
7.90000 192.000
7.92000 201.000
7.94000 192.000
7.96000 194.000
7.98000 212.000
8.00000 209.000
8.02000 216.000
8.04000 212.000
8.06000 221.000
8.08000 221.000
8.10000 217.000
8.12000 228.000
8.14000 210.000
8.16000 198.000
8.18000 227.000
8.20000 220.000
8.22000 197.000
8.24000 209.000
8.26000 224.000
8.28000 218.000
8.30000 215.000
8.32000 198.000
8.34000 223.000
8.36000 231.000
8.38000 223.000
8.40000 212.000
8.42000 202.000
8.44000 229.000
8.46000 194.000
8.48000 220.000
8.50000 226.000
8.52000 246.000
8.54000 244.000
8.56000 238.000
8.58000 254.000
8.60000 232.000
8.62000 238.000
8.64000 243.000
8.66000 226.000
8.68000 247.000
8.70000 237.000
8.72000 208.000
8.74000 234.000
8.76000 238.000
8.78000 262.000
8.80000 247.000
8.82000 234.000
8.84000 235.000
8.86000 243.000
8.88000 236.000
8.90000 235.000
8.92000 238.000
8.94000 236.000
8.96000 244.000
8.98000 262.000
9.00000 234.000
9.02000 250.000
9.04000 253.000
9.06000 222.000
9.08000 252.000
9.10000 247.000
9.12000 260.000
9.14000 264.000
9.16000 274.000
9.18000 266.000
9.20000 261.000
9.22000 244.000
9.24000 276.000
9.26000 253.000
9.28000 226.000
9.30000 260.000
9.32000 280.000
9.34000 259.000
9.36000 282.000
9.38000 260.000
9.40000 238.000
9.42000 254.000
9.44000 249.000
9.46000 255.000
9.48000 259.000
9.50000 267.000
9.52000 238.000
9.54000 222.000
9.56000 235.000
9.58000 228.000
9.60000 241.000
9.62000 241.000
9.64000 275.000
9.66000 288.000
9.68000 260.000
9.70000 252.000
9.72000 263.000
9.74000 289.000
9.76000 281.000
9.78000 270.000
9.80000 271.000
9.82000 269.000
9.84000 270.000
9.86000 263.000
9.88000 245.000
9.90000 250.000
9.92000 261.000
9.94000 273.000
9.96000 256.000
9.98000 265.000
10.00000 272.000
10.02000 252.000
10.04000 285.000
10.06000 288.000
10.08000 296.000
10.10000 258.000
10.12000 279.000
10.14000 264.000
10.16000 282.000
10.18000 271.000
10.20000 281.000
10.22000 296.000
10.24000 307.000
10.26000 266.000
10.28000 287.000
10.30000 274.000
10.32000 286.000
10.34000 306.000
10.36000 248.000
10.38000 296.000
10.40000 273.000
10.42000 275.000
10.44000 301.000
10.46000 267.000
10.48000 287.000
10.50000 272.000
10.52000 266.000
10.54000 279.000
10.56000 273.000
10.58000 295.000
10.60000 290.000
10.62000 279.000
10.64000 308.000
10.66000 268.000
10.68000 266.000
10.70000 273.000
10.72000 272.000
10.74000 269.000
10.76000 291.000
10.78000 280.000
10.80000 311.000
10.82000 254.000
10.84000 281.000
10.86000 290.000
10.88000 254.000
10.90000 267.000
10.92000 265.000
10.94000 307.000
10.96000 294.000
10.98000 265.000
11.00000 295.000
11.02000 280.000
11.04000 270.000
11.06000 267.000
11.08000 299.000
11.10000 290.000
11.12000 296.000
11.14000 291.000
11.16000 292.000
11.18000 293.000
11.20000 282.000
11.22000 279.000
11.24000 312.000
11.26000 268.000
11.28000 297.000
11.30000 290.000
11.32000 270.000
11.34000 284.000
11.36000 289.000
11.38000 313.000
11.40000 293.000
11.42000 296.000
11.44000 292.000
11.46000 292.000
11.48000 277.000
11.50000 314.000
11.52000 290.000
11.54000 334.000
11.56000 309.000
11.58000 279.000
11.60000 317.000
11.62000 293.000
11.64000 321.000
11.66000 338.000
11.68000 297.000
11.70000 309.000
11.72000 310.000
11.74000 303.000
11.76000 291.000
11.78000 315.000
11.80000 291.000
11.82000 280.000
11.84000 306.000
11.86000 316.000
11.88000 323.000
11.90000 325.000
11.92000 314.000
11.94000 302.000
11.96000 309.000
11.98000 303.000
12.00000 295.000
12.02000 329.000
12.04000 324.000
12.06000 319.000
12.08000 317.000
12.10000 335.000
12.12000 300.000
12.14000 320.000
12.16000 328.000
12.18000 312.000
12.20000 316.000
12.22000 360.000
12.24000 324.000
12.26000 317.000
12.28000 354.000
12.30000 333.000
12.32000 310.000
12.34000 311.000
12.36000 320.000
12.38000 323.000
12.40000 349.000
12.42000 353.000
12.44000 326.000
12.46000 336.000
12.48000 372.000
12.50000 318.000
12.52000 333.000
12.54000 340.000
12.56000 294.000
12.58000 314.000
12.60000 341.000
12.62000 339.000
12.64000 325.000
12.66000 359.000
12.68000 328.000
12.70000 344.000
12.72000 339.000
12.74000 354.000
12.76000 386.000
12.78000 328.000
12.80000 330.000
12.82000 317.000
12.84000 345.000
12.86000 356.000
12.88000 359.000
12.90000 340.000
12.92000 325.000
12.94000 347.000
12.96000 367.000
12.98000 347.000
13.00000 350.000
13.02000 320.000
13.04000 319.000
13.06000 354.000
13.08000 340.000
13.10000 372.000
13.12000 366.000
13.14000 346.000
13.16000 351.000
13.18000 338.000
13.20000 353.000
13.22000 350.000
13.24000 363.000
13.26000 348.000
13.28000 393.000
13.30000 349.000
13.32000 374.000
13.34000 354.000
13.36000 344.000
13.38000 369.000
13.40000 383.000
13.42000 352.000
13.44000 345.000
13.46000 395.000
13.48000 384.000
13.50000 366.000
13.52000 360.000
13.54000 372.000
13.56000 338.000
13.58000 354.000
13.60000 377.000
13.62000 389.000
13.64000 378.000
13.66000 403.000
13.68000 361.000
13.70000 417.000
13.72000 394.000
13.74000 352.000
13.76000 353.000
13.78000 371.000
13.80000 365.000
13.82000 402.000
13.84000 403.000
13.86000 363.000
13.88000 400.000
13.90000 427.000
13.92000 397.000
13.94000 381.000
13.96000 393.000
13.98000 376.000
14.00000 413.000
14.02000 405.000
14.04000 365.000
14.06000 378.000
14.08000 401.000
14.10000 416.000
14.12000 371.000
14.14000 392.000
14.16000 395.000
14.18000 413.000
14.20000 397.000
14.22000 390.000
14.24000 390.000
14.26000 413.000
14.28000 379.000
14.30000 388.000
14.32000 429.000
14.34000 417.000
14.36000 389.000
14.38000 393.000
14.40000 416.000
14.42000 421.000
14.44000 407.000
14.46000 383.000
14.48000 392.000
14.50000 415.000
14.52000 400.000
14.54000 418.000
14.56000 421.000
14.58000 433.000
14.60000 411.000
14.62000 426.000
14.64000 410.000
14.66000 455.000
14.68000 407.000
14.70000 388.000
14.72000 392.000
14.74000 411.000
14.76000 410.000
14.78000 409.000
14.80000 425.000
14.82000 428.000
14.84000 432.000
14.86000 438.000
14.88000 422.000
14.90000 438.000
14.92000 398.000
14.94000 411.000
14.96000 418.000
14.98000 432.000
15.00000 426.000
15.02000 454.000
15.04000 435.000
15.06000 419.000
15.08000 434.000
15.10000 432.000
15.12000 416.000
15.14000 448.000
15.16000 444.000
15.18000 445.000
15.20000 435.000
15.22000 449.000
15.24000 472.000
15.26000 442.000
15.28000 443.000
15.30000 447.000
15.32000 450.000
15.34000 441.000
15.36000 446.000
15.38000 452.000
15.40000 460.000
15.42000 463.000
15.44000 453.000
15.46000 463.000
15.48000 473.000
15.50000 479.000
15.52000 485.000
15.54000 466.000
15.56000 444.000
15.58000 480.000
15.60000 469.000
15.62000 477.000
15.64000 423.000
15.66000 473.000
15.68000 475.000
15.70000 440.000
15.72000 474.000
15.74000 438.000
15.76000 470.000
15.78000 480.000
15.80000 464.000
15.82000 475.000
15.84000 468.000
15.86000 447.000
15.88000 472.000
15.90000 483.000
15.92000 462.000
15.94000 471.000
15.96000 494.000
15.98000 505.000
16.00000 522.000
16.02000 499.000
16.04000 491.000
16.06000 473.000
16.08000 454.000
16.10000 484.000
16.12000 505.000
16.14000 529.000
16.16000 451.000
16.18000 508.000
16.20000 483.000
16.22000 499.000
16.24000 539.000
16.26000 499.000
16.28000 501.000
16.30000 484.000
16.32000 510.000
16.34000 491.000
16.36000 476.000
16.38000 483.000
16.40000 483.000
16.42000 516.000
16.44000 506.000
16.46000 471.000
16.48000 492.000
16.50000 495.000
16.52000 550.000
16.54000 488.000
16.56000 489.000
16.58000 510.000
16.60000 481.000
16.62000 499.000
16.64000 501.000
16.66000 515.000
16.68000 525.000
16.70000 512.000
16.72000 474.000
16.74000 465.000
16.76000 515.000
16.78000 537.000
16.80000 470.000
16.82000 489.000
16.84000 493.000
16.86000 487.000
16.88000 500.000
16.90000 495.000
16.92000 529.000
16.94000 527.000
16.96000 515.000
16.98000 501.000
17.00000 489.000
17.02000 506.000
17.04000 502.000
17.06000 501.000
17.08000 479.000
17.10000 521.000
17.12000 475.000
17.14000 518.000
17.16000 507.000
17.18000 538.000
17.20000 497.000
17.22000 516.000
17.24000 520.000
17.26000 491.000
17.28000 494.000
17.30000 516.000
17.32000 533.000
17.34000 543.000
17.36000 528.000
17.38000 534.000
17.40000 541.000
17.42000 527.000
17.44000 527.000
17.46000 486.000
17.48000 545.000
17.50000 509.000
17.52000 495.000
17.54000 514.000
17.56000 523.000
17.58000 513.000
17.60000 538.000
17.62000 501.000
17.64000 516.000
17.66000 498.000
17.68000 488.000
17.70000 535.000
17.72000 549.000
17.74000 515.000
17.76000 527.000
17.78000 524.000
17.80000 482.000
17.82000 490.000
17.84000 524.000
17.86000 528.000
17.88000 515.000
17.90000 482.000
17.92000 521.000
17.94000 553.000
17.96000 503.000
17.98000 530.000
18.00000 489.000
18.02000 541.000
18.04000 517.000
18.06000 499.000
18.08000 491.000
18.10000 526.000
18.12000 524.000
18.14000 536.000
18.16000 488.000
18.18000 494.000
18.20000 538.000
18.22000 553.000
18.24000 523.000
18.26000 545.000
18.28000 508.000
18.30000 504.000
18.32000 494.000
18.34000 548.000
18.36000 542.000
18.38000 510.000
18.40000 537.000
18.42000 529.000
18.44000 508.000
18.46000 534.000
18.48000 505.000
18.50000 548.000
18.52000 557.000
18.54000 535.000
18.56000 554.000
18.58000 537.000
18.60000 529.000
18.62000 515.000
18.64000 540.000
18.66000 510.000
18.68000 535.000
18.70000 543.000
18.72000 508.000
18.74000 531.000
18.76000 555.000
18.78000 550.000
18.80000 533.000
18.82000 533.000
18.84000 549.000
18.86000 504.000
18.88000 567.000
18.90000 550.000
18.92000 554.000
18.94000 541.000
18.96000 524.000
18.98000 546.000
19.00000 556.000
19.02000 553.000
19.04000 532.000
19.06000 532.000
19.08000 513.000
19.10000 511.000
19.12000 493.000
19.14000 537.000
19.16000 520.000
19.18000 533.000
19.20000 514.000
19.22000 519.000
19.24000 578.000
19.26000 553.000
19.28000 559.000
19.30000 502.000
19.32000 539.000
19.34000 529.000
19.36000 546.000
19.38000 554.000
19.40000 565.000
19.42000 534.000
19.44000 550.000
19.46000 559.000
19.48000 509.000
19.50000 513.000
19.52000 546.000
19.54000 516.000
19.56000 555.000
19.58000 565.000
19.60000 567.000
19.62000 532.000
19.64000 542.000
19.66000 586.000
19.68000 554.000
19.70000 567.000
19.72000 584.000
19.74000 520.000
19.76000 579.000
19.78000 539.000
19.80000 562.000
19.82000 526.000
19.84000 497.000
19.86000 508.000
19.88000 564.000
19.90000 592.000
19.92000 553.000
19.94000 554.000
19.96000 539.000
19.98000 556.000
20.00000 532.000
20.02000 521.000
20.04000 550.000
20.06000 547.000
20.08000 571.000
20.10000 552.000
20.12000 551.000
20.14000 586.000
20.16000 535.000
20.18000 575.000
20.20000 553.000
20.22000 533.000
20.24000 550.000
20.26000 570.000
20.28000 564.000
20.30000 601.000
20.32000 581.000
20.34000 581.000
20.36000 556.000
20.38000 554.000
20.40000 542.000
20.42000 573.000
20.44000 561.000
20.46000 567.000
20.48000 528.000
20.50000 546.000
20.52000 577.000
20.54000 585.000
20.56000 561.000
20.58000 575.000
20.60000 556.000
20.62000 515.000
20.64000 579.000
20.66000 571.000
20.68000 562.000
20.70000 566.000
20.72000 519.000
20.74000 584.000
20.76000 558.000
20.78000 548.000
20.80000 564.000
20.82000 566.000
20.84000 571.000
20.86000 575.000
20.88000 548.000
20.90000 566.000
20.92000 546.000
20.94000 579.000
20.96000 574.000
20.98000 558.000
21.00000 585.000
21.02000 552.000
21.04000 525.000
21.06000 587.000
21.08000 576.000
21.10000 558.000
21.12000 594.000
21.14000 562.000
21.16000 578.000
21.18000 561.000
21.20000 548.000
21.22000 554.000
21.24000 579.000
21.26000 547.000
21.28000 573.000
21.30000 561.000
21.32000 567.000
21.34000 594.000
21.36000 554.000
21.38000 536.000
21.40000 550.000
21.42000 580.000
21.44000 575.000
21.46000 600.000
21.48000 557.000
21.50000 561.000
21.52000 586.000
21.54000 577.000
21.56000 602.000
21.58000 573.000
21.60000 570.000
21.62000 583.000
21.64000 590.000
21.66000 587.000
21.68000 575.000
21.70000 567.000
21.72000 610.000
21.74000 564.000
21.76000 596.000
21.78000 588.000
21.80000 563.000
21.82000 555.000
21.84000 608.000
21.86000 562.000
21.88000 564.000
21.90000 588.000
21.92000 540.000
21.94000 561.000
21.96000 552.000
21.98000 597.000
22.00000 598.000
22.02000 562.000
22.04000 552.000
22.06000 555.000
22.08000 577.000
22.10000 620.000
22.12000 570.000
22.14000 577.000
22.16000 594.000
22.18000 595.000
22.20000 600.000
22.22000 576.000
22.24000 563.000
22.26000 547.000
22.28000 564.000
22.30000 571.000
22.32000 560.000
22.34000 594.000
22.36000 584.000
22.38000 583.000
22.40000 601.000
22.42000 584.000
22.44000 595.000
22.46000 615.000
22.48000 569.000
22.50000 586.000
22.52000 600.000
22.54000 581.000
22.56000 599.000
22.58000 594.000
22.60000 583.000
22.62000 566.000
22.64000 632.000
22.66000 614.000
22.68000 587.000
22.70000 589.000
22.72000 608.000
22.74000 556.000
22.76000 572.000
22.78000 618.000
22.80000 626.000
22.82000 572.000
22.84000 577.000
22.86000 567.000
22.88000 569.000
22.90000 598.000
22.92000 575.000
22.94000 587.000
22.96000 587.000
22.98000 570.000
23.00000 607.000
23.02000 596.000
23.04000 589.000
23.06000 586.000
23.08000 620.000
23.10000 581.000
23.12000 578.000
23.14000 569.000
23.16000 604.000
23.18000 611.000
23.20000 613.000
23.22000 560.000
23.24000 572.000
23.26000 625.000
23.28000 576.000
23.30000 602.000
23.32000 594.000
23.34000 638.000
23.36000 600.000
23.38000 577.000
23.40000 658.000
23.42000 626.000
23.44000 608.000
23.46000 596.000
23.48000 605.000
23.50000 621.000
23.52000 624.000
23.54000 592.000
23.56000 592.000
23.58000 578.000
23.60000 608.000
23.62000 570.000
23.64000 580.000
23.66000 624.000
23.68000 613.000
23.70000 581.000
23.72000 603.000
23.74000 617.000
23.76000 599.000
23.78000 561.000
23.80000 554.000
23.82000 594.000
23.84000 580.000
23.86000 587.000
23.88000 600.000
23.90000 591.000
23.92000 618.000
23.94000 631.000
23.96000 586.000
23.98000 582.000
24.00000 619.000
24.02000 616.000
24.04000 622.000
24.06000 589.000
24.08000 626.000
24.10000 605.000
24.12000 602.000
24.14000 613.000
24.16000 588.000
24.18000 617.000
24.20000 647.000
24.22000 644.000
24.24000 645.000
24.26000 642.000
24.28000 606.000
24.30000 609.000
24.32000 619.000
24.34000 595.000
24.36000 646.000
24.38000 680.000
24.40000 628.000
24.42000 641.000
24.44000 687.000
24.46000 663.000
24.48000 695.000
24.50000 659.000
24.52000 691.000
24.54000 680.000
24.56000 653.000
24.58000 699.000
24.60000 720.000
24.62000 717.000
24.64000 711.000
24.66000 665.000
24.68000 686.000
24.70000 740.000
24.72000 705.000
24.74000 748.000
24.76000 700.000
24.78000 768.000
24.80000 753.000
24.82000 729.000
24.84000 793.000
24.86000 816.000
24.88000 866.000
24.90000 799.000
24.92000 829.000
24.94000 901.000
24.96000 887.000
24.98000 893.000
25.00000 950.000
25.02000 964.000
25.04000 1016.000
25.06000 1073.000
25.08000 1117.000
25.10000 1136.000
25.12000 1165.000
25.14000 1256.000
25.16000 1396.000
25.18000 1474.000
25.20000 1578.000
25.22000 1647.000
25.24000 1796.000
25.26000 1832.000
25.28000 1942.000
25.30000 2064.000
25.32000 2122.000
25.34000 2078.000
25.36000 2063.000
25.38000 2089.000
25.40000 2000.000
25.42000 1939.000
25.44000 1736.000
25.46000 1572.000
25.48000 1491.000
25.50000 1316.000
25.52000 1279.000
25.54000 1229.000
25.56000 1072.000
25.58000 1047.000
25.60000 957.000
25.62000 893.000
25.64000 902.000
25.66000 862.000
25.68000 848.000
25.70000 770.000
25.72000 759.000
25.74000 764.000
25.76000 750.000
25.78000 711.000
25.80000 675.000
25.82000 696.000
25.84000 653.000
25.86000 717.000
25.88000 671.000
25.90000 655.000
25.92000 644.000
25.94000 677.000
25.96000 656.000
25.98000 644.000
26.00000 641.000
26.02000 628.000
26.04000 646.000
26.06000 630.000
26.08000 578.000
26.10000 606.000
26.12000 573.000
26.14000 612.000
26.16000 607.000
26.18000 590.000
26.20000 597.000
26.22000 605.000
26.24000 555.000
26.26000 609.000
26.28000 570.000
26.30000 608.000
26.32000 594.000
26.34000 583.000
26.36000 581.000
26.38000 582.000
26.40000 580.000
26.42000 567.000
26.44000 530.000
26.46000 537.000
26.48000 554.000
26.50000 599.000
26.52000 517.000
26.54000 536.000
26.56000 547.000
26.58000 536.000
26.60000 537.000
26.62000 523.000
26.64000 553.000
26.66000 520.000
26.68000 578.000
26.70000 518.000
26.72000 567.000
26.74000 568.000
26.76000 556.000
26.78000 533.000
26.80000 563.000
26.82000 545.000
26.84000 587.000
26.86000 521.000
26.88000 536.000
26.90000 564.000
26.92000 585.000
26.94000 539.000
26.96000 555.000
26.98000 589.000
27.00000 534.000
27.02000 568.000
27.04000 552.000
27.06000 551.000
27.08000 538.000
27.10000 556.000
27.12000 550.000
27.14000 538.000
27.16000 537.000
27.18000 554.000
27.20000 549.000
27.22000 553.000
27.24000 546.000
27.26000 536.000
27.28000 572.000
27.30000 578.000
27.32000 545.000
27.34000 538.000
27.36000 540.000
27.38000 521.000
27.40000 535.000
27.42000 561.000
27.44000 546.000
27.46000 548.000
27.48000 565.000
27.50000 568.000
27.52000 542.000
27.54000 554.000
27.56000 533.000
27.58000 549.000
27.60000 540.000
27.62000 557.000
27.64000 539.000
27.66000 552.000
27.68000 553.000
27.70000 578.000
27.72000 565.000
27.74000 565.000
27.76000 526.000
27.78000 547.000
27.80000 609.000
27.82000 588.000
27.84000 563.000
27.86000 560.000
27.88000 579.000
27.90000 563.000
27.92000 559.000
27.94000 540.000
27.96000 555.000
27.98000 553.000
28.00000 585.000
28.02000 597.000
28.04000 562.000
28.06000 596.000
28.08000 542.000
28.10000 559.000
28.12000 569.000
28.14000 572.000
28.16000 594.000
28.18000 554.000
28.20000 536.000
28.22000 568.000
28.24000 610.000
28.26000 620.000
28.28000 594.000
28.30000 570.000
28.32000 585.000
28.34000 586.000
28.36000 630.000
28.38000 642.000
28.40000 629.000
28.42000 675.000
28.44000 606.000
28.46000 667.000
28.48000 623.000
28.50000 652.000
28.52000 668.000
28.54000 699.000
28.56000 702.000
28.58000 730.000
28.60000 718.000
28.62000 792.000
28.64000 788.000
28.66000 822.000
28.68000 866.000
28.70000 868.000
28.72000 877.000
28.74000 851.000
28.76000 898.000
28.78000 814.000
28.80000 805.000
28.82000 773.000
28.84000 766.000
28.86000 776.000
28.88000 748.000
28.90000 706.000
28.92000 685.000
28.94000 672.000
28.96000 676.000
28.98000 668.000
29.00000 667.000
29.02000 611.000
29.04000 638.000
29.06000 658.000
29.08000 640.000
29.10000 609.000
29.12000 580.000
29.14000 601.000
29.16000 637.000
29.18000 608.000
29.20000 573.000
29.22000 559.000
29.24000 576.000
29.26000 587.000
29.28000 621.000
29.30000 596.000
29.32000 606.000
29.34000 601.000
29.36000 575.000
29.38000 581.000
29.40000 618.000
29.42000 562.000
29.44000 578.000
29.46000 606.000
29.48000 601.000
29.50000 530.000
29.52000 582.000
29.54000 581.000
29.56000 583.000
29.58000 573.000
29.60000 573.000
29.62000 599.000
29.64000 574.000
29.66000 552.000
29.68000 606.000
29.70000 610.000
29.72000 580.000
29.74000 583.000
29.76000 576.000
29.78000 559.000
29.80000 544.000
29.82000 565.000
29.84000 617.000
29.86000 564.000
29.88000 575.000
29.90000 557.000
29.92000 580.000
29.94000 595.000
29.96000 578.000
29.98000 563.000
30.00000 601.000
30.02000 583.000
30.04000 565.000
30.06000 596.000
30.08000 578.000
30.10000 578.000
30.12000 564.000
30.14000 577.000
30.16000 551.000
30.18000 590.000
30.20000 598.000
30.22000 608.000
30.24000 581.000
30.26000 614.000
30.28000 585.000
30.30000 614.000
30.32000 568.000
30.34000 563.000
30.36000 592.000
30.38000 572.000
30.40000 609.000
30.42000 586.000
30.44000 568.000
30.46000 619.000
30.48000 588.000
30.50000 612.000
30.52000 622.000
30.54000 574.000
30.56000 610.000
30.58000 582.000
30.60000 570.000
30.62000 624.000
30.64000 619.000
30.66000 602.000
30.68000 613.000
30.70000 649.000
30.72000 663.000
30.74000 605.000
30.76000 631.000
30.78000 642.000
30.80000 622.000
30.82000 653.000
30.84000 645.000
30.86000 594.000
30.88000 635.000
30.90000 650.000
30.92000 683.000
30.94000 657.000
30.96000 646.000
30.98000 639.000
31.00000 659.000
31.02000 634.000
31.04000 655.000
31.06000 668.000
31.08000 660.000
31.10000 681.000
31.12000 666.000
31.14000 684.000
31.16000 767.000
31.18000 776.000
31.20000 688.000
31.22000 750.000
31.24000 724.000
31.26000 801.000
31.28000 771.000
31.30000 763.000
31.32000 828.000
31.34000 765.000
31.36000 820.000
31.38000 805.000
31.40000 842.000
31.42000 843.000
31.44000 879.000
31.46000 865.000
31.48000 851.000
31.50000 863.000
31.52000 892.000
31.54000 906.000
31.56000 921.000
31.58000 982.000
31.60000 986.000
31.62000 1008.000
31.64000 990.000
31.66000 1030.000
31.68000 1029.000
31.70000 1085.000
31.72000 1116.000
31.74000 1162.000
31.76000 1230.000
31.78000 1283.000
31.80000 1302.000
31.82000 1332.000
31.84000 1373.000
31.86000 1485.000
31.88000 1547.000
31.90000 1641.000
31.92000 1702.000
31.94000 1766.000
31.96000 1976.000
31.98000 2099.000
32.00000 2210.000
32.02000 2410.000
32.04000 2630.000
32.06000 2863.000
32.08000 3091.000
32.10000 3511.000
32.12000 3833.000
32.14000 4326.000
32.16000 4899.000
32.18000 5336.000
32.20000 6307.000
32.22000 7232.000
32.24000 8191.000
32.26000 9155.000
32.28000 10287.000
32.30000 11258.000
32.32000 11726.000
32.34000 11980.000
32.36000 11911.000
32.38000 11564.000
32.40000 10628.000
32.42000 9824.000
32.44000 8715.000
32.46000 7801.000
32.48000 6891.000
32.50000 5868.000
32.52000 4991.000
32.54000 4375.000
32.56000 3789.000
32.58000 3485.000
32.60000 3031.000
32.62000 2864.000
32.64000 2496.000
32.66000 2342.000
32.68000 2212.000
32.70000 2100.000
32.72000 1910.000
32.74000 1776.000
32.76000 1652.000
32.78000 1649.000
32.80000 1488.000
32.82000 1409.000
32.84000 1377.000
32.86000 1327.000
32.88000 1306.000
32.90000 1205.000
32.92000 1128.000
32.94000 1111.000
32.96000 1099.000
32.98000 1046.000
33.00000 1024.000
33.02000 1073.000
33.04000 975.000
33.06000 978.000
33.08000 968.000
33.10000 924.000
33.12000 921.000
33.14000 877.000
33.16000 870.000
33.18000 881.000
33.20000 895.000
33.22000 834.000
33.24000 840.000
33.26000 866.000
33.28000 834.000
33.30000 826.000
33.32000 802.000
33.34000 791.000
33.36000 754.000
33.38000 747.000
33.40000 745.000
33.42000 752.000
33.44000 682.000
33.46000 752.000
33.48000 756.000
33.50000 695.000
33.52000 728.000
33.54000 725.000
33.56000 737.000
33.58000 724.000
33.60000 693.000
33.62000 713.000
33.64000 709.000
33.66000 681.000
33.68000 689.000
33.70000 657.000
33.72000 649.000
33.74000 687.000
33.76000 665.000
33.78000 683.000
33.80000 691.000
33.82000 647.000
33.84000 671.000
33.86000 675.000
33.88000 678.000
33.90000 687.000
33.92000 630.000
33.94000 633.000
33.96000 627.000
33.98000 616.000
34.00000 637.000
34.02000 649.000
34.04000 629.000
34.06000 647.000
34.08000 671.000
34.10000 623.000
34.12000 579.000
34.14000 639.000
34.16000 645.000
34.18000 623.000
34.20000 614.000
34.22000 608.000
34.24000 658.000
34.26000 612.000
34.28000 626.000
34.30000 615.000
34.32000 638.000
34.34000 605.000
34.36000 647.000
34.38000 554.000
34.40000 584.000
34.42000 611.000
34.44000 589.000
34.46000 588.000
34.48000 564.000
34.50000 590.000
34.52000 580.000
34.54000 604.000
34.56000 601.000
34.58000 608.000
34.60000 606.000
34.62000 616.000
34.64000 591.000
34.66000 609.000
34.68000 610.000
34.70000 586.000
34.72000 595.000
34.74000 591.000
34.76000 617.000
34.78000 598.000
34.80000 555.000
34.82000 561.000
34.84000 565.000
34.86000 634.000
34.88000 581.000
34.90000 534.000
34.92000 539.000
34.94000 537.000
34.96000 556.000
34.98000 573.000
35.00000 577.000
35.02000 558.000
35.04000 581.000
35.06000 569.000
35.08000 549.000
35.10000 573.000
35.12000 554.000
35.14000 572.000
35.16000 563.000
35.18000 588.000
35.20000 572.000
35.22000 545.000
35.24000 539.000
35.26000 564.000
35.28000 562.000
35.30000 576.000
35.32000 573.000
35.34000 550.000
35.36000 571.000
35.38000 584.000
35.40000 555.000
35.42000 524.000
35.44000 537.000
35.46000 562.000
35.48000 561.000
35.50000 547.000
35.52000 541.000
35.54000 553.000
35.56000 507.000
35.58000 531.000
35.60000 501.000
35.62000 546.000
35.64000 540.000
35.66000 547.000
35.68000 583.000
35.70000 585.000
35.72000 578.000
35.74000 551.000
35.76000 548.000
35.78000 537.000
35.80000 551.000
35.82000 523.000
35.84000 553.000
35.86000 571.000
35.88000 556.000
35.90000 557.000
35.92000 544.000
35.94000 539.000
35.96000 526.000
35.98000 535.000
36.00000 562.000
36.02000 541.000
36.04000 541.000
36.06000 542.000
36.08000 532.000
36.10000 504.000
36.12000 495.000
36.14000 562.000
36.16000 516.000
36.18000 518.000
36.20000 529.000
36.22000 487.000
36.24000 506.000
36.26000 535.000
36.28000 533.000
36.30000 510.000
36.32000 514.000
36.34000 521.000
36.36000 526.000
36.38000 512.000
36.40000 527.000
36.42000 526.000
36.44000 536.000
36.46000 551.000
36.48000 523.000
36.50000 512.000
36.52000 489.000
36.54000 502.000
36.56000 517.000
36.58000 515.000
36.60000 527.000
36.62000 494.000
36.64000 483.000
36.66000 517.000
36.68000 562.000
36.70000 531.000
36.72000 555.000
36.74000 519.000
36.76000 532.000
36.78000 519.000
36.80000 553.000
36.82000 519.000
36.84000 520.000
36.86000 479.000
36.88000 469.000
36.90000 516.000
36.92000 499.000
36.94000 540.000
36.96000 515.000
36.98000 510.000
37.00000 548.000
37.02000 512.000
37.04000 487.000
37.06000 501.000
37.08000 520.000
37.10000 538.000
37.12000 510.000
37.14000 453.000
37.16000 496.000
37.18000 515.000
37.20000 558.000
37.22000 492.000
37.24000 502.000
37.26000 523.000
37.28000 532.000
37.30000 502.000
37.32000 527.000
37.34000 508.000
37.36000 474.000
37.38000 540.000
37.40000 520.000
37.42000 511.000
37.44000 515.000
37.46000 503.000
37.48000 523.000
37.50000 491.000
37.52000 509.000
37.54000 511.000
37.56000 491.000
37.58000 477.000
37.60000 500.000
37.62000 498.000
37.64000 510.000
37.66000 496.000
37.68000 494.000
37.70000 522.000
37.72000 509.000
37.74000 477.000
37.76000 473.000
37.78000 505.000
37.80000 481.000
37.82000 440.000
37.84000 495.000
37.86000 466.000
37.88000 487.000
37.90000 465.000
37.92000 523.000
37.94000 489.000
37.96000 464.000
37.98000 487.000
38.00000 501.000
38.02000 503.000
38.04000 450.000
38.06000 493.000
38.08000 481.000
38.10000 519.000
38.12000 503.000
38.14000 502.000
38.16000 470.000
38.18000 481.000
38.20000 492.000
38.22000 477.000
38.24000 471.000
38.26000 472.000
38.28000 495.000
38.30000 454.000
38.32000 474.000
38.34000 478.000
38.36000 496.000
38.38000 476.000
38.40000 514.000
38.42000 477.000
38.44000 512.000
38.46000 491.000
38.48000 446.000
38.50000 469.000
38.52000 463.000
38.54000 461.000
38.56000 473.000
38.58000 481.000
38.60000 468.000
38.62000 475.000
38.64000 471.000
38.66000 465.000
38.68000 457.000
38.70000 462.000
38.72000 480.000
38.74000 468.000
38.76000 502.000
38.78000 458.000
38.80000 465.000
38.82000 471.000
38.84000 499.000
38.86000 478.000
38.88000 495.000
38.90000 472.000
38.92000 457.000
38.94000 499.000
38.96000 442.000
38.98000 498.000
39.00000 469.000
39.02000 452.000
39.04000 482.000
39.06000 506.000
39.08000 471.000
39.10000 480.000
39.12000 501.000
39.14000 494.000
39.16000 487.000
39.18000 476.000
39.20000 452.000
39.22000 455.000
39.24000 485.000
39.26000 459.000
39.28000 462.000
39.30000 474.000
39.32000 492.000
39.34000 518.000
39.36000 523.000
39.38000 461.000
39.40000 482.000
39.42000 481.000
39.44000 498.000
39.46000 481.000
39.48000 502.000
39.50000 481.000
39.52000 478.000
39.54000 472.000
39.56000 512.000
39.58000 471.000
39.60000 456.000
39.62000 460.000
39.64000 490.000
39.66000 485.000
39.68000 464.000
39.70000 478.000
39.72000 493.000
39.74000 462.000
39.76000 443.000
39.78000 481.000
39.80000 477.000
39.82000 467.000
39.84000 446.000
39.86000 461.000
39.88000 477.000
39.90000 446.000
39.92000 459.000
39.94000 470.000
39.96000 478.000
39.98000 467.000
40.00000 476.000
40.02000 495.000
40.04000 505.000
40.06000 509.000
40.08000 476.000
40.10000 473.000
40.12000 447.000
40.14000 486.000
40.16000 472.000
40.18000 476.000
40.20000 473.000
40.22000 471.000
40.24000 464.000
40.26000 448.000
40.28000 507.000
40.30000 485.000
40.32000 485.000
40.34000 485.000
40.36000 468.000
40.38000 485.000
40.40000 456.000
40.42000 482.000
40.44000 440.000
40.46000 478.000
40.48000 469.000
40.50000 481.000
40.52000 480.000
40.54000 480.000
40.56000 478.000
40.58000 445.000
40.60000 456.000
40.62000 456.000
40.64000 465.000
40.66000 460.000
40.68000 494.000
40.70000 514.000
40.72000 480.000
40.74000 468.000
40.76000 462.000
40.78000 452.000
40.80000 437.000
40.82000 486.000
40.84000 473.000
40.86000 442.000
40.88000 495.000
40.90000 472.000
40.92000 461.000
40.94000 495.000
40.96000 483.000
40.98000 485.000
41.00000 466.000
41.02000 465.000
41.04000 467.000
41.06000 485.000
41.08000 448.000
41.10000 470.000
41.12000 467.000
41.14000 488.000
41.16000 455.000
41.18000 465.000
41.20000 476.000
41.22000 482.000
41.24000 507.000
41.26000 480.000
41.28000 472.000
41.30000 501.000
41.32000 471.000
41.34000 490.000
41.36000 479.000
41.38000 461.000
41.40000 430.000
41.42000 505.000
41.44000 451.000
41.46000 449.000
41.48000 417.000
41.50000 475.000
41.52000 485.000
41.54000 478.000
41.56000 478.000
41.58000 463.000
41.60000 531.000
41.62000 510.000
41.64000 509.000
41.66000 480.000
41.68000 493.000
41.70000 476.000
41.72000 485.000
41.74000 513.000
41.76000 515.000
41.78000 495.000
41.80000 516.000
41.82000 473.000
41.84000 463.000
41.86000 462.000
41.88000 516.000
41.90000 494.000
41.92000 516.000
41.94000 495.000
41.96000 485.000
41.98000 490.000
42.00000 492.000
42.02000 473.000
42.04000 497.000
42.06000 518.000
42.08000 505.000
42.10000 537.000
42.12000 499.000
42.14000 497.000
42.16000 521.000
42.18000 490.000
42.20000 475.000
42.22000 528.000
42.24000 512.000
42.26000 495.000
42.28000 481.000
42.30000 516.000
42.32000 516.000
42.34000 493.000
42.36000 514.000
42.38000 503.000
42.40000 492.000
42.42000 572.000
42.44000 552.000
42.46000 544.000
42.48000 508.000
42.50000 513.000
42.52000 507.000
42.54000 491.000
42.56000 516.000
42.58000 548.000
42.60000 540.000
42.62000 561.000
42.64000 541.000
42.66000 527.000
42.68000 549.000
42.70000 547.000
42.72000 550.000
42.74000 545.000
42.76000 516.000
42.78000 533.000
42.80000 585.000
42.82000 544.000
42.84000 564.000
42.86000 568.000
42.88000 592.000
42.90000 591.000
42.92000 579.000
42.94000 573.000
42.96000 576.000
42.98000 597.000
43.00000 624.000
43.02000 596.000
43.04000 607.000
43.06000 581.000
43.08000 631.000
43.10000 606.000
43.12000 631.000
43.14000 632.000
43.16000 603.000
43.18000 606.000
43.20000 613.000
43.22000 677.000
43.24000 646.000
43.26000 667.000
43.28000 663.000
43.30000 661.000
43.32000 637.000
43.34000 691.000
43.36000 669.000
43.38000 682.000
43.40000 681.000
43.42000 707.000
43.44000 735.000
43.46000 798.000
43.48000 770.000
43.50000 782.000
43.52000 817.000
43.54000 831.000
43.56000 839.000
43.58000 798.000
43.60000 839.000
43.62000 868.000
43.64000 927.000
43.66000 951.000
43.68000 932.000
43.70000 934.000
43.72000 986.000
43.74000 1060.000
43.76000 1120.000
43.78000 1124.000
43.80000 1183.000
43.82000 1235.000
43.84000 1265.000
43.86000 1285.000
43.88000 1332.000
43.90000 1450.000
43.92000 1461.000
43.94000 1518.000
43.96000 1659.000
43.98000 1665.000
44.00000 1763.000
44.02000 1898.000
44.04000 1926.000
44.06000 2055.000
44.08000 2171.000
44.10000 2357.000
44.12000 2330.000
44.14000 2396.000
44.16000 2542.000
44.18000 2525.000
44.20000 2612.000
44.22000 2522.000
44.24000 2519.000
44.26000 2558.000
44.28000 2365.000
44.30000 2296.000
44.32000 2210.000
44.34000 2165.000
44.36000 2029.000
44.38000 1923.000
44.40000 1741.000
44.42000 1722.000
44.44000 1642.000
44.46000 1570.000
44.48000 1468.000
44.50000 1418.000
44.52000 1312.000
44.54000 1213.000
44.56000 1214.000
44.58000 1175.000
44.60000 1122.000
44.62000 1089.000
44.64000 1010.000
44.66000 983.000
44.68000 946.000
44.70000 912.000
44.72000 870.000
44.74000 826.000
44.76000 814.000
44.78000 802.000
44.80000 796.000
44.82000 797.000
44.84000 801.000
44.86000 746.000
44.88000 721.000
44.90000 695.000
44.92000 712.000
44.94000 694.000
44.96000 694.000
44.98000 654.000
45.00000 636.000
45.02000 682.000
45.04000 594.000
45.06000 598.000
45.08000 581.000
45.10000 649.000
45.12000 614.000
45.14000 610.000
45.16000 589.000
45.18000 605.000
45.20000 595.000
45.22000 574.000
45.24000 560.000
45.26000 546.000
45.28000 515.000
45.30000 598.000
45.32000 573.000
45.34000 536.000
45.36000 550.000
45.38000 536.000
45.40000 576.000
45.42000 527.000
45.44000 556.000
45.46000 546.000
45.48000 516.000
45.50000 532.000
45.52000 498.000
45.54000 574.000
45.56000 504.000
45.58000 504.000
45.60000 500.000
45.62000 514.000
45.64000 525.000
45.66000 499.000
45.68000 513.000
45.70000 548.000
45.72000 546.000
45.74000 479.000
45.76000 545.000
45.78000 493.000
45.80000 530.000
45.82000 549.000
45.84000 518.000
45.86000 529.000
45.88000 532.000
45.90000 532.000
45.92000 480.000
45.94000 536.000
45.96000 547.000
45.98000 528.000
46.00000 527.000
46.02000 478.000
46.04000 516.000
46.06000 484.000
46.08000 485.000
46.10000 485.000
46.12000 496.000
46.14000 504.000
46.16000 489.000
46.18000 486.000
46.20000 527.000
46.22000 529.000
46.24000 494.000
46.26000 511.000
46.28000 509.000
46.30000 502.000
46.32000 497.000
46.34000 501.000
46.36000 517.000
46.38000 510.000
46.40000 502.000
46.42000 490.000
46.44000 471.000
46.46000 466.000
46.48000 520.000
46.50000 496.000
46.52000 529.000
46.54000 515.000
46.56000 502.000
46.58000 530.000
46.60000 519.000
46.62000 555.000
46.64000 505.000
46.66000 567.000
46.68000 544.000
46.70000 528.000
46.72000 520.000
46.74000 506.000
46.76000 538.000
46.78000 556.000
46.80000 512.000
46.82000 551.000
46.84000 519.000
46.86000 552.000
46.88000 513.000
46.90000 500.000
46.92000 493.000
46.94000 514.000
46.96000 545.000
46.98000 520.000
47.00000 521.000
47.02000 539.000
47.04000 511.000
47.06000 529.000
47.08000 551.000
47.10000 562.000
47.12000 554.000
47.14000 554.000
47.16000 561.000
47.18000 545.000
47.20000 541.000
47.22000 565.000
47.24000 531.000
47.26000 547.000
47.28000 534.000
47.30000 557.000
47.32000 586.000
47.34000 550.000
47.36000 552.000
47.38000 529.000
47.40000 558.000
47.42000 528.000
47.44000 519.000
47.46000 591.000
47.48000 604.000
47.50000 570.000
47.52000 554.000
47.54000 594.000
47.56000 619.000
47.58000 608.000
47.60000 612.000
47.62000 617.000
47.64000 629.000
47.66000 647.000
47.68000 612.000
47.70000 603.000
47.72000 678.000
47.74000 608.000
47.76000 694.000
47.78000 670.000
47.80000 713.000
47.82000 720.000
47.84000 727.000
47.86000 720.000
47.88000 725.000
47.90000 761.000
47.92000 772.000
47.94000 866.000
47.96000 823.000
47.98000 852.000
48.00000 907.000
48.02000 956.000
48.04000 956.000
48.06000 1033.000
48.08000 1032.000
48.10000 1071.000
48.12000 1127.000
48.14000 1224.000
48.16000 1262.000
48.18000 1314.000
48.20000 1402.000
48.22000 1450.000
48.24000 1561.000
48.26000 1628.000
48.28000 1739.000
48.30000 1843.000
48.32000 1949.000
48.34000 2101.000
48.36000 2220.000
48.38000 2311.000
48.40000 2454.000
48.42000 2502.000
48.44000 2418.000
48.46000 2569.000
48.48000 2492.000
48.50000 2511.000
48.52000 2514.000
48.54000 2373.000
48.56000 2312.000
48.58000 2232.000
48.60000 2203.000
48.62000 2057.000
48.64000 1949.000
48.66000 1868.000
48.68000 1845.000
48.70000 1721.000
48.72000 1620.000
48.74000 1574.000
48.76000 1511.000
48.78000 1392.000
48.80000 1342.000
48.82000 1279.000
48.84000 1275.000
48.86000 1248.000
48.88000 1188.000
48.90000 1110.000
48.92000 1103.000
48.94000 1026.000
48.96000 997.000
48.98000 977.000
49.00000 977.000
49.02000 975.000
49.04000 952.000
49.06000 898.000
49.08000 868.000
49.10000 860.000
49.12000 871.000
49.14000 797.000
49.16000 824.000
49.18000 810.000
49.20000 807.000
49.22000 785.000
49.24000 733.000
49.26000 725.000
49.28000 743.000
49.30000 735.000
49.32000 706.000
49.34000 724.000
49.36000 769.000
49.38000 749.000
49.40000 700.000
49.42000 719.000
49.44000 655.000
49.46000 663.000
49.48000 675.000
49.50000 699.000
49.52000 678.000
49.54000 657.000
49.56000 661.000
49.58000 691.000
49.60000 650.000
49.62000 675.000
49.64000 653.000
49.66000 620.000
49.68000 623.000
49.70000 659.000
49.72000 635.000
49.74000 632.000
49.76000 636.000
49.78000 641.000
49.80000 682.000
49.82000 639.000
49.84000 630.000
49.86000 626.000
49.88000 688.000
49.90000 625.000
49.92000 576.000
49.94000 628.000
49.96000 643.000
49.98000 639.000
50.00000 623.000
50.02000 628.000
50.04000 602.000
50.06000 622.000
50.08000 663.000
50.10000 634.000
50.12000 613.000
50.14000 656.000
50.16000 636.000
50.18000 659.000
50.20000 614.000
50.22000 610.000
50.24000 621.000
50.26000 622.000
50.28000 641.000
50.30000 591.000
50.32000 643.000
50.34000 681.000
50.36000 622.000
50.38000 658.000
50.40000 607.000
50.42000 649.000
50.44000 600.000
50.46000 621.000
50.48000 655.000
50.50000 647.000
50.52000 619.000
50.54000 640.000
50.56000 664.000
50.58000 654.000
50.60000 663.000
50.62000 666.000
50.64000 675.000
50.66000 675.000
50.68000 634.000
50.70000 678.000
50.72000 710.000
50.74000 689.000
50.76000 673.000
50.78000 679.000
50.80000 632.000
50.82000 678.000
50.84000 653.000
50.86000 677.000
50.88000 687.000
50.90000 698.000
50.92000 660.000
50.94000 711.000
50.96000 727.000
50.98000 725.000
51.00000 766.000
51.02000 741.000
51.04000 766.000
51.06000 771.000
51.08000 740.000
51.10000 802.000
51.12000 787.000
51.14000 782.000
51.16000 778.000
51.18000 790.000
51.20000 805.000
51.22000 846.000
51.24000 874.000
51.26000 826.000
51.28000 906.000
51.30000 931.000
51.32000 914.000
51.34000 923.000
51.36000 950.000
51.38000 1007.000
51.40000 1074.000
51.42000 1058.000
51.44000 1136.000
51.46000 1108.000
51.48000 1141.000
51.50000 1208.000
51.52000 1222.000
51.54000 1292.000
51.56000 1295.000
51.58000 1331.000
51.60000 1308.000
51.62000 1351.000
51.64000 1311.000
51.66000 1325.000
51.68000 1307.000
51.70000 1349.000
51.72000 1346.000
51.74000 1361.000
51.76000 1320.000
51.78000 1264.000
51.80000 1211.000
51.82000 1211.000
51.84000 1211.000
51.86000 1246.000
51.88000 1150.000
51.90000 1168.000
51.92000 1158.000
51.94000 1134.000
51.96000 1137.000
51.98000 1119.000
52.00000 1068.000
52.02000 1115.000
52.04000 1107.000
52.06000 1106.000
52.08000 1104.000
52.10000 1040.000
52.12000 968.000
52.14000 978.000
52.16000 997.000
52.18000 940.000
52.20000 903.000
52.22000 875.000
52.24000 810.000
52.26000 839.000
52.28000 817.000
52.30000 825.000
52.32000 777.000
52.34000 752.000
52.36000 766.000
52.38000 773.000
52.40000 697.000
52.42000 673.000
52.44000 701.000
52.46000 727.000
52.48000 708.000
52.50000 698.000
52.52000 666.000
52.54000 643.000
52.56000 645.000
52.58000 674.000
52.60000 635.000
52.62000 642.000
52.64000 629.000
52.66000 623.000
52.68000 617.000
52.70000 587.000
52.72000 610.000
52.74000 607.000
52.76000 589.000
52.78000 606.000
52.80000 603.000
52.82000 590.000
52.84000 570.000
52.86000 605.000
52.88000 600.000
52.90000 601.000
52.92000 581.000
52.94000 567.000
52.96000 560.000
52.98000 574.000
53.00000 594.000
53.02000 563.000
53.04000 560.000
53.06000 578.000
53.08000 526.000
53.10000 535.000
53.12000 556.000
53.14000 578.000
53.16000 574.000
53.18000 575.000
53.20000 571.000
53.22000 588.000
53.24000 550.000
53.26000 549.000
53.28000 557.000
53.30000 571.000
53.32000 564.000
53.34000 589.000
53.36000 551.000
53.38000 568.000
53.40000 556.000
53.42000 554.000
53.44000 532.000
53.46000 570.000
53.48000 573.000
53.50000 576.000
53.52000 555.000
53.54000 547.000
53.56000 564.000
53.58000 554.000
53.60000 512.000
53.62000 514.000
53.64000 570.000
53.66000 546.000
53.68000 533.000
53.70000 541.000
53.72000 547.000
53.74000 554.000
53.76000 540.000
53.78000 543.000
53.80000 559.000
53.82000 543.000
53.84000 579.000
53.86000 542.000
53.88000 564.000
53.90000 569.000
53.92000 529.000
53.94000 591.000
53.96000 554.000
53.98000 530.000
54.00000 524.000
54.02000 527.000
54.04000 549.000
54.06000 515.000
54.08000 510.000
54.10000 556.000
54.12000 538.000
54.14000 580.000
54.16000 556.000
54.18000 542.000
54.20000 524.000
54.22000 556.000
54.24000 548.000
54.26000 549.000
54.28000 583.000
54.30000 529.000
54.32000 562.000
54.34000 510.000
54.36000 558.000
54.38000 544.000
54.40000 550.000
54.42000 544.000
54.44000 565.000
54.46000 599.000
54.48000 538.000
54.50000 541.000
54.52000 599.000
54.54000 601.000
54.56000 575.000
54.58000 520.000
54.60000 581.000
54.62000 526.000
54.64000 579.000
54.66000 558.000
54.68000 554.000
54.70000 544.000
54.72000 577.000
54.74000 561.000
54.76000 570.000
54.78000 603.000
54.80000 619.000
54.82000 624.000
54.84000 589.000
54.86000 562.000
54.88000 619.000
54.90000 607.000
54.92000 623.000
54.94000 615.000
54.96000 597.000
54.98000 638.000
55.00000 618.000
55.02000 649.000
55.04000 656.000
55.06000 666.000
55.08000 638.000
55.10000 693.000
55.12000 712.000
55.14000 678.000
55.16000 713.000
55.18000 699.000
55.20000 743.000
55.22000 776.000
55.24000 736.000
55.26000 816.000
55.28000 774.000
55.30000 831.000
55.32000 853.000
55.34000 862.000
55.36000 852.000
55.38000 922.000
55.40000 934.000
55.42000 933.000
55.44000 868.000
55.46000 920.000
55.48000 961.000
55.50000 912.000
55.52000 933.000
55.54000 942.000
55.56000 892.000
55.58000 862.000
55.60000 849.000
55.62000 831.000
55.64000 800.000
55.66000 788.000
55.68000 769.000
55.70000 707.000
55.72000 725.000
55.74000 716.000
55.76000 698.000
55.78000 673.000
55.80000 652.000
55.82000 655.000
55.84000 625.000
55.86000 643.000
55.88000 637.000
55.90000 584.000
55.92000 596.000
55.94000 588.000
55.96000 606.000
55.98000 564.000
56.00000 555.000
56.02000 573.000
56.04000 593.000
56.06000 551.000
56.08000 569.000
56.10000 590.000
56.12000 547.000
56.14000 552.000
56.16000 564.000
56.18000 595.000
56.20000 577.000
56.22000 547.000
56.24000 532.000
56.26000 520.000
56.28000 542.000
56.30000 517.000
56.32000 534.000
56.34000 556.000
56.36000 522.000
56.38000 497.000
56.40000 501.000
56.42000 541.000
56.44000 510.000
56.46000 537.000
56.48000 497.000
56.50000 504.000
56.52000 522.000
56.54000 521.000
56.56000 498.000
56.58000 527.000
56.60000 547.000
56.62000 512.000
56.64000 521.000
56.66000 493.000
56.68000 505.000
56.70000 512.000
56.72000 527.000
56.74000 503.000
56.76000 542.000
56.78000 516.000
56.80000 558.000
56.82000 563.000
56.84000 514.000
56.86000 520.000
56.88000 497.000
56.90000 516.000
56.92000 493.000
56.94000 492.000
56.96000 507.000
56.98000 497.000
57.00000 477.000
57.02000 499.000
57.04000 497.000
57.06000 511.000
57.08000 523.000
57.10000 516.000
57.12000 524.000
57.14000 512.000
57.16000 517.000
57.18000 502.000
57.20000 530.000
57.22000 533.000
57.24000 538.000
57.26000 495.000
57.28000 527.000
57.30000 507.000
57.32000 517.000
57.34000 540.000
57.36000 510.000
57.38000 529.000
57.40000 511.000
57.42000 509.000
57.44000 516.000
57.46000 520.000
57.48000 527.000
57.50000 513.000
57.52000 491.000
57.54000 503.000
57.56000 501.000
57.58000 473.000
57.60000 525.000
57.62000 503.000
57.64000 489.000
57.66000 505.000
57.68000 532.000
57.70000 536.000
57.72000 494.000
57.74000 499.000
57.76000 500.000
57.78000 515.000
57.80000 517.000
57.82000 521.000
57.84000 492.000
57.86000 481.000
57.88000 537.000
57.90000 513.000
57.92000 500.000
57.94000 521.000
57.96000 557.000
57.98000 464.000
58.00000 480.000
58.02000 498.000
58.04000 541.000
58.06000 496.000
58.08000 534.000
58.10000 510.000
58.12000 509.000
58.14000 496.000
58.16000 471.000
58.18000 501.000
58.20000 475.000
58.22000 516.000
58.24000 504.000
58.26000 516.000
58.28000 505.000
58.30000 522.000
58.32000 523.000
58.34000 534.000
58.36000 519.000
58.38000 517.000
58.40000 535.000
58.42000 540.000
58.44000 532.000
58.46000 490.000
58.48000 542.000
58.50000 575.000
58.52000 543.000
58.54000 583.000
58.56000 571.000
58.58000 538.000
58.60000 582.000
58.62000 576.000
58.64000 577.000
58.66000 559.000
58.68000 581.000
58.70000 549.000
58.72000 576.000
58.74000 578.000
58.76000 636.000
58.78000 618.000
58.80000 623.000
58.82000 585.000
58.84000 632.000
58.86000 625.000
58.88000 648.000
58.90000 691.000
58.92000 710.000
58.94000 708.000
58.96000 731.000
58.98000 723.000
59.00000 736.000
59.02000 765.000
59.04000 806.000
59.06000 837.000
59.08000 807.000
59.10000 834.000
59.12000 866.000
59.14000 918.000
59.16000 982.000
59.18000 1011.000
59.20000 1023.000
59.22000 1111.000
59.24000 1135.000
59.26000 1145.000
59.28000 1181.000
59.30000 1199.000
59.32000 1264.000
59.34000 1278.000
59.36000 1329.000
59.38000 1421.000
59.40000 1423.000
59.42000 1406.000
59.44000 1452.000
59.46000 1361.000
59.48000 1398.000
59.50000 1435.000
59.52000 1359.000
59.54000 1373.000
59.56000 1371.000
59.58000 1337.000
59.60000 1226.000
59.62000 1305.000
59.64000 1216.000
59.66000 1167.000
59.68000 1179.000
59.70000 1139.000
59.72000 1076.000
59.74000 1022.000
59.76000 1040.000
59.78000 962.000
59.80000 927.000
59.82000 858.000
59.84000 911.000
59.86000 866.000
59.88000 866.000
59.90000 792.000
59.92000 745.000
59.94000 737.000
59.96000 777.000
59.98000 738.000
60.00000 707.000
60.02000 703.000
60.04000 680.000
60.06000 709.000
60.08000 667.000
60.10000 696.000
60.12000 654.000
60.14000 597.000
60.16000 616.000
60.18000 648.000
60.20000 621.000
60.22000 622.000
60.24000 602.000
60.26000 579.000
60.28000 574.000
60.30000 567.000
60.32000 626.000
60.34000 577.000
60.36000 569.000
60.38000 571.000
60.40000 559.000
60.42000 537.000
60.44000 592.000
60.46000 533.000
60.48000 562.000
60.50000 555.000
60.52000 541.000
60.54000 535.000
60.56000 543.000
60.58000 514.000
60.60000 523.000
60.62000 528.000
60.64000 515.000
60.66000 529.000
60.68000 516.000
60.70000 497.000
60.72000 457.000
60.74000 506.000
60.76000 487.000
60.78000 528.000
60.80000 517.000
60.82000 480.000
60.84000 458.000
60.86000 482.000
60.88000 474.000
60.90000 495.000
60.92000 485.000
60.94000 455.000
60.96000 465.000
60.98000 469.000
61.00000 480.000
61.02000 503.000
61.04000 482.000
61.06000 473.000
61.08000 495.000
61.10000 464.000
61.12000 471.000
61.14000 457.000
61.16000 421.000
61.18000 480.000
61.20000 444.000
61.22000 481.000
61.24000 494.000
61.26000 456.000
61.28000 459.000
61.30000 474.000
61.32000 469.000
61.34000 466.000
61.36000 457.000
61.38000 431.000
61.40000 454.000
61.42000 426.000
61.44000 465.000
61.46000 420.000
61.48000 445.000
61.50000 444.000
61.52000 425.000
61.54000 466.000
61.56000 418.000
61.58000 442.000
61.60000 435.000
61.62000 441.000
61.64000 455.000
61.66000 468.000
61.68000 429.000
61.70000 443.000
61.72000 457.000
61.74000 439.000
61.76000 423.000
61.78000 486.000
61.80000 462.000
61.82000 426.000
61.84000 432.000
61.86000 425.000
61.88000 436.000
61.90000 413.000
61.92000 433.000
61.94000 413.000
61.96000 431.000
61.98000 458.000
62.00000 457.000
62.02000 447.000
62.04000 434.000
62.06000 457.000
62.08000 442.000
62.10000 434.000
62.12000 416.000
62.14000 442.000
62.16000 426.000
62.18000 454.000
62.20000 449.000
62.22000 438.000
62.24000 456.000
62.26000 436.000
62.28000 421.000
62.30000 445.000
62.32000 416.000
62.34000 440.000
62.36000 407.000
62.38000 413.000
62.40000 448.000
62.42000 415.000
62.44000 445.000
62.46000 428.000
62.48000 468.000
62.50000 424.000
62.52000 419.000
62.54000 412.000
62.56000 413.000
62.58000 420.000
62.60000 459.000
62.62000 440.000
62.64000 433.000
62.66000 435.000
62.68000 443.000
62.70000 431.000
62.72000 437.000
62.74000 424.000
62.76000 418.000
62.78000 437.000
62.80000 400.000
62.82000 396.000
62.84000 418.000
62.86000 402.000
62.88000 455.000
62.90000 412.000
62.92000 407.000
62.94000 427.000
62.96000 448.000
62.98000 406.000
63.00000 404.000
63.02000 427.000
63.04000 427.000
63.06000 421.000
63.08000 404.000
63.10000 422.000
63.12000 423.000
63.14000 402.000
63.16000 431.000
63.18000 443.000
63.20000 437.000
63.22000 427.000
63.24000 417.000
63.26000 447.000
63.28000 439.000
63.30000 425.000
63.32000 416.000
63.34000 420.000
63.36000 421.000
63.38000 384.000
63.40000 393.000
63.42000 403.000
63.44000 383.000
63.46000 447.000
63.48000 423.000
63.50000 447.000
63.52000 409.000
63.54000 403.000
63.56000 393.000
63.58000 382.000
63.60000 416.000
63.62000 405.000
63.64000 406.000
63.66000 380.000
63.68000 405.000
63.70000 416.000
63.72000 376.000
63.74000 419.000
63.76000 403.000
63.78000 419.000
63.80000 418.000
63.82000 393.000
63.84000 441.000
63.86000 443.000
63.88000 427.000
63.90000 406.000
63.92000 431.000
63.94000 408.000
63.96000 391.000
63.98000 425.000
64.00000 420.000
64.02000 415.000
64.04000 396.000
64.06000 397.000
64.08000 398.000
64.10000 420.000
64.12000 402.000
64.14000 419.000
64.16000 401.000
64.18000 385.000
64.20000 418.000
64.22000 398.000
64.24000 411.000
64.26000 416.000
64.28000 385.000
64.30000 388.000
64.32000 407.000
64.34000 394.000
64.36000 395.000
64.38000 437.000
64.40000 429.000
64.42000 427.000
64.44000 424.000
64.46000 425.000
64.48000 435.000
64.50000 417.000
64.52000 405.000
64.54000 411.000
64.56000 420.000
64.58000 407.000
64.60000 409.000
64.62000 437.000
64.64000 362.000
64.66000 387.000
64.68000 440.000
64.70000 439.000
64.72000 375.000
64.74000 439.000
64.76000 407.000
64.78000 424.000
64.80000 389.000
64.82000 433.000
64.84000 389.000
64.86000 411.000
64.88000 393.000
64.90000 373.000
64.92000 397.000
64.94000 365.000
64.96000 378.000
64.98000 427.000
65.00000 415.000
65.02000 418.000
65.04000 417.000
65.06000 417.000
65.08000 411.000
65.10000 411.000
65.12000 413.000
65.14000 417.000
65.16000 410.000
65.18000 412.000
65.20000 423.000
65.22000 412.000
65.24000 425.000
65.26000 415.000
65.28000 416.000
65.30000 445.000
65.32000 415.000
65.34000 397.000
65.36000 427.000
65.38000 443.000
65.40000 391.000
65.42000 426.000
65.44000 422.000
65.46000 405.000
65.48000 391.000
65.50000 407.000
65.52000 416.000
65.54000 423.000
65.56000 458.000
65.58000 450.000
65.60000 412.000
65.62000 413.000
65.64000 412.000
65.66000 440.000
65.68000 443.000
65.70000 418.000
65.72000 434.000
65.74000 458.000
65.76000 441.000
65.78000 437.000
65.80000 414.000
65.82000 427.000
65.84000 428.000
65.86000 437.000
65.88000 446.000
65.90000 399.000
65.92000 416.000
65.94000 411.000
65.96000 454.000
65.98000 431.000
66.00000 414.000
66.02000 425.000
66.04000 451.000
66.06000 431.000
66.08000 440.000
66.10000 461.000
66.12000 437.000
66.14000 438.000
66.16000 423.000
66.18000 447.000
66.20000 421.000
66.22000 394.000
66.24000 442.000
66.26000 448.000
66.28000 444.000
66.30000 441.000
66.32000 433.000
66.34000 452.000
66.36000 432.000
66.38000 425.000
66.40000 433.000
66.42000 423.000
66.44000 421.000
66.46000 441.000
66.48000 445.000
66.50000 438.000
66.52000 471.000
66.54000 444.000
66.56000 460.000
66.58000 428.000
66.60000 446.000
66.62000 457.000
66.64000 444.000
66.66000 439.000
66.68000 464.000
66.70000 476.000
66.72000 493.000
66.74000 473.000
66.76000 472.000
66.78000 448.000
66.80000 454.000
66.82000 433.000
66.84000 454.000
66.86000 465.000
66.88000 480.000
66.90000 491.000
66.92000 492.000
66.94000 496.000
66.96000 518.000
66.98000 514.000
67.00000 504.000
67.02000 553.000
67.04000 512.000
67.06000 504.000
67.08000 504.000
67.10000 524.000
67.12000 537.000
67.14000 531.000
67.16000 517.000
67.18000 548.000
67.20000 567.000
67.22000 552.000
67.24000 561.000
67.26000 582.000
67.28000 609.000
67.30000 639.000
67.32000 589.000
67.34000 631.000
67.36000 661.000
67.38000 640.000
67.40000 663.000
67.42000 741.000
67.44000 753.000
67.46000 725.000
67.48000 777.000
67.50000 818.000
67.52000 861.000
67.54000 893.000
67.56000 901.000
67.58000 935.000
67.60000 929.000
67.62000 955.000
67.64000 980.000
67.66000 948.000
67.68000 880.000
67.70000 958.000
67.72000 952.000
67.74000 936.000
67.76000 907.000
67.78000 954.000
67.80000 866.000
67.82000 908.000
67.84000 858.000
67.86000 776.000
67.88000 822.000
67.90000 775.000
67.92000 769.000
67.94000 740.000
67.96000 777.000
67.98000 728.000
68.00000 702.000
68.02000 706.000
68.04000 729.000
68.06000 666.000
68.08000 640.000
68.10000 686.000
68.12000 682.000
68.14000 666.000
68.16000 654.000
68.18000 683.000
68.20000 679.000
68.22000 691.000
68.24000 680.000
68.26000 699.000
68.28000 710.000
68.30000 684.000
68.32000 720.000
68.34000 678.000
68.36000 791.000
68.38000 745.000
68.40000 718.000
68.42000 741.000
68.44000 772.000
68.46000 723.000
68.48000 772.000
68.50000 812.000
68.52000 702.000
68.54000 734.000
68.56000 751.000
68.58000 744.000
68.60000 759.000
68.62000 768.000
68.64000 832.000
68.66000 782.000
68.68000 789.000
68.70000 723.000
68.72000 792.000
68.74000 765.000
68.76000 708.000
68.78000 691.000
68.80000 733.000
68.82000 727.000
68.84000 731.000
68.86000 722.000
68.88000 656.000
68.90000 683.000
68.92000 644.000
68.94000 634.000
68.96000 651.000
68.98000 621.000
69.00000 609.000
69.02000 617.000
69.04000 564.000
69.06000 581.000
69.08000 591.000
69.10000 561.000
69.12000 566.000
69.14000 621.000
69.16000 522.000
69.18000 508.000
69.20000 529.000
69.22000 511.000
69.24000 515.000
69.26000 523.000
69.28000 472.000
69.30000 476.000
69.32000 516.000
69.34000 481.000
69.36000 501.000
69.38000 462.000
69.40000 477.000
69.42000 446.000
69.44000 500.000
69.46000 480.000
69.48000 463.000
69.50000 482.000
69.52000 449.000
69.54000 455.000
69.56000 458.000
69.58000 441.000
69.60000 459.000
69.62000 459.000
69.64000 438.000
69.66000 474.000
69.68000 495.000
69.70000 458.000
69.72000 445.000
69.74000 441.000
69.76000 441.000
69.78000 429.000
69.80000 447.000
69.82000 435.000
69.84000 421.000
69.86000 436.000
69.88000 439.000
69.90000 433.000
69.92000 422.000
69.94000 407.000
69.96000 429.000
69.98000 437.000
70.00000 413.000
70.02000 395.000
70.04000 445.000
70.06000 438.000
70.08000 456.000
70.10000 408.000
70.12000 420.000
70.14000 434.000
70.16000 406.000
70.18000 402.000
70.20000 405.000
70.22000 402.000
70.24000 433.000
70.26000 458.000
70.28000 420.000
70.30000 415.000
70.32000 426.000
70.34000 467.000
70.36000 422.000
70.38000 402.000
70.40000 399.000
70.42000 436.000
70.44000 400.000
70.46000 418.000
70.48000 407.000
70.50000 418.000
70.52000 404.000
70.54000 424.000
70.56000 404.000
70.58000 412.000
70.60000 427.000
70.62000 408.000
70.64000 402.000
70.66000 433.000
70.68000 421.000
70.70000 424.000
70.72000 389.000
70.74000 404.000
70.76000 424.000
70.78000 426.000
70.80000 401.000
70.82000 425.000
70.84000 401.000
70.86000 391.000
70.88000 388.000
70.90000 389.000
70.92000 421.000
70.94000 429.000
70.96000 390.000
70.98000 427.000
71.00000 427.000
71.02000 376.000
71.04000 397.000
71.06000 404.000
71.08000 386.000
71.10000 406.000
71.12000 430.000
71.14000 417.000
71.16000 418.000
71.18000 401.000
71.20000 398.000
71.22000 390.000
71.24000 438.000
71.26000 405.000
71.28000 434.000
71.30000 412.000
71.32000 420.000
71.34000 403.000
71.36000 429.000
71.38000 419.000
71.40000 419.000
71.42000 423.000
71.44000 429.000
71.46000 426.000
71.48000 413.000
71.50000 430.000
71.52000 447.000
71.54000 449.000
71.56000 454.000
71.58000 442.000
71.60000 397.000
71.62000 427.000
71.64000 415.000
71.66000 423.000
71.68000 393.000
71.70000 388.000
71.72000 447.000
71.74000 410.000
71.76000 400.000
71.78000 429.000
71.80000 443.000
71.82000 461.000
71.84000 435.000
71.86000 418.000
71.88000 443.000
71.90000 442.000
71.92000 437.000
71.94000 399.000
71.96000 414.000
71.98000 437.000
72.00000 440.000
72.02000 469.000
72.04000 427.000
72.06000 409.000
72.08000 435.000
72.10000 397.000
72.12000 444.000
72.14000 422.000
72.16000 419.000
72.18000 453.000
72.20000 436.000
72.22000 426.000
72.24000 401.000
72.26000 424.000
72.28000 461.000
72.30000 435.000
72.32000 452.000
72.34000 440.000
72.36000 486.000
72.38000 471.000
72.40000 415.000
72.42000 445.000
72.44000 445.000
72.46000 405.000
72.48000 466.000
72.50000 463.000
72.52000 437.000
72.54000 436.000
72.56000 503.000
72.58000 444.000
72.60000 483.000
72.62000 479.000
72.64000 458.000
72.66000 474.000
72.68000 484.000
72.70000 444.000
72.72000 420.000
72.74000 475.000
72.76000 481.000
72.78000 474.000
72.80000 476.000
72.82000 500.000
72.84000 502.000
72.86000 470.000
72.88000 492.000
72.90000 492.000
72.92000 507.000
72.94000 506.000
72.96000 507.000
72.98000 496.000
73.00000 524.000
73.02000 549.000
73.04000 581.000
73.06000 531.000
73.08000 536.000
73.10000 541.000
73.12000 563.000
73.14000 530.000
73.16000 602.000
73.18000 603.000
73.20000 561.000
73.22000 556.000
73.24000 594.000
73.26000 626.000
73.28000 659.000
73.30000 638.000
73.32000 660.000
73.34000 662.000
73.36000 670.000
73.38000 665.000
73.40000 651.000
73.42000 677.000
73.44000 672.000
73.46000 727.000
73.48000 703.000
73.50000 664.000
73.52000 731.000
73.54000 747.000
73.56000 773.000
73.58000 788.000
73.60000 756.000
73.62000 774.000
73.64000 793.000
73.66000 778.000
73.68000 813.000
73.70000 779.000
73.72000 770.000
73.74000 747.000
73.76000 749.000
73.78000 724.000
73.80000 774.000
73.82000 766.000
73.84000 786.000
73.86000 751.000
73.88000 771.000
73.90000 748.000
73.92000 701.000
73.94000 669.000
73.96000 675.000
73.98000 683.000
74.00000 688.000
74.02000 669.000
74.04000 656.000
74.06000 662.000
74.08000 637.000
74.10000 608.000
74.12000 592.000
74.14000 595.000
74.16000 609.000
74.18000 556.000
74.20000 538.000
74.22000 601.000
74.24000 540.000
74.26000 534.000
74.28000 550.000
74.30000 541.000
74.32000 493.000
74.34000 519.000
74.36000 496.000
74.38000 517.000
74.40000 513.000
74.42000 495.000
74.44000 490.000
74.46000 482.000
74.48000 440.000
74.50000 459.000
74.52000 450.000
74.54000 469.000
74.56000 481.000
74.58000 466.000
74.60000 471.000
74.62000 440.000
74.64000 455.000
74.66000 410.000
74.68000 420.000
74.70000 429.000
74.72000 406.000
74.74000 426.000
74.76000 435.000
74.78000 441.000
74.80000 427.000
74.82000 442.000
74.84000 414.000
74.86000 391.000
74.88000 425.000
74.90000 412.000
74.92000 386.000
74.94000 417.000
74.96000 436.000
74.98000 420.000
75.00000 435.000
75.02000 423.000
75.04000 422.000
75.06000 444.000
75.08000 421.000
75.10000 411.000
75.12000 388.000
75.14000 416.000
75.16000 391.000
75.18000 374.000
75.20000 403.000
75.22000 416.000
75.24000 409.000
75.26000 418.000
75.28000 410.000
75.30000 421.000
75.32000 402.000
75.34000 387.000
75.36000 378.000
75.38000 381.000
75.40000 382.000
75.42000 364.000
75.44000 399.000
75.46000 382.000
75.48000 371.000
75.50000 371.000
75.52000 383.000
75.54000 381.000
75.56000 366.000
75.58000 351.000
75.60000 389.000
75.62000 386.000
75.64000 344.000
75.66000 369.000
75.68000 403.000
75.70000 413.000
75.72000 393.000
75.74000 381.000
75.76000 383.000
75.78000 346.000
75.80000 362.000
75.82000 378.000
75.84000 395.000
75.86000 372.000
75.88000 383.000
75.90000 399.000
75.92000 376.000
75.94000 388.000
75.96000 378.000
75.98000 366.000
76.00000 364.000
76.02000 373.000
76.04000 370.000
76.06000 367.000
76.08000 348.000
76.10000 366.000
76.12000 370.000
76.14000 389.000
76.16000 370.000
76.18000 369.000
76.20000 373.000
76.22000 369.000
76.24000 377.000
76.26000 370.000
76.28000 354.000
76.30000 378.000
76.32000 370.000
76.34000 363.000
76.36000 354.000
76.38000 369.000
76.40000 373.000
76.42000 347.000
76.44000 356.000
76.46000 342.000
76.48000 378.000
76.50000 346.000
76.52000 350.000
76.54000 369.000
76.56000 403.000
76.58000 370.000
76.60000 364.000
76.62000 373.000
76.64000 361.000
76.66000 382.000
76.68000 365.000
76.70000 371.000
76.72000 360.000
76.74000 366.000
76.76000 360.000
76.78000 354.000
76.80000 354.000
76.82000 369.000
76.84000 383.000
76.86000 398.000
76.88000 353.000
76.90000 387.000
76.92000 378.000
76.94000 387.000
76.96000 380.000
76.98000 369.000
77.00000 354.000
77.02000 367.000
77.04000 382.000
77.06000 374.000
77.08000 343.000
77.10000 332.000
77.12000 360.000
77.14000 384.000
77.16000 397.000
77.18000 362.000
77.20000 381.000
77.22000 385.000
77.24000 366.000
77.26000 387.000
77.28000 384.000
77.30000 379.000
77.32000 386.000
77.34000 375.000
77.36000 397.000
77.38000 393.000
77.40000 401.000
77.42000 397.000
77.44000 383.000
77.46000 381.000
77.48000 391.000
77.50000 366.000
77.52000 390.000
77.54000 387.000
77.56000 367.000
77.58000 380.000
77.60000 384.000
77.62000 373.000
77.64000 406.000
77.66000 379.000
77.68000 343.000
77.70000 391.000
77.72000 413.000
77.74000 398.000
77.76000 369.000
77.78000 406.000
77.80000 398.000
77.82000 419.000
77.84000 425.000
77.86000 410.000
77.88000 391.000
77.90000 413.000
77.92000 384.000
77.94000 387.000
77.96000 376.000
77.98000 398.000
78.00000 398.000
78.02000 434.000
78.04000 420.000
78.06000 436.000
78.08000 428.000
78.10000 425.000
78.12000 408.000
78.14000 427.000
78.16000 406.000
78.18000 419.000
78.20000 398.000
78.22000 424.000
78.24000 424.000
78.26000 431.000
78.28000 440.000
78.30000 420.000
78.32000 408.000
78.34000 416.000
78.36000 408.000
78.38000 437.000
78.40000 415.000
78.42000 429.000
78.44000 428.000
78.46000 420.000
78.48000 402.000
78.50000 406.000
78.52000 383.000
78.54000 414.000
78.56000 413.000
78.58000 407.000
78.60000 405.000
78.62000 397.000
78.64000 413.000
78.66000 396.000
78.68000 395.000
78.70000 376.000
78.72000 418.000
78.74000 389.000
78.76000 395.000
78.78000 409.000
78.80000 410.000
78.82000 412.000
78.84000 401.000
78.86000 379.000
78.88000 411.000
78.90000 415.000
78.92000 382.000
78.94000 411.000
78.96000 414.000
78.98000 418.000
79.00000 406.000
79.02000 380.000
79.04000 415.000
79.06000 403.000
79.08000 385.000
79.10000 410.000
79.12000 387.000
79.14000 434.000
79.16000 430.000
79.18000 433.000
79.20000 413.000
79.22000 415.000
79.24000 399.000
79.26000 420.000
79.28000 433.000
79.30000 420.000
79.32000 451.000
79.34000 448.000
79.36000 426.000
79.38000 413.000
79.40000 441.000
79.42000 458.000
79.44000 462.000
79.46000 463.000
79.48000 489.000
79.50000 461.000
79.52000 447.000
79.54000 517.000
79.56000 499.000
79.58000 492.000
79.60000 524.000
79.62000 499.000
79.64000 600.000
79.66000 538.000
79.68000 541.000
79.70000 571.000
79.72000 617.000
79.74000 567.000
79.76000 605.000
79.78000 593.000
79.80000 615.000
79.82000 665.000
79.84000 660.000
79.86000 703.000
79.88000 685.000
79.90000 762.000
79.92000 743.000
79.94000 753.000
79.96000 768.000
79.98000 860.000
80.00000 800.000
80.02000 790.000
80.04000 836.000
80.06000 850.000
80.08000 832.000
80.10000 797.000
80.12000 814.000
80.14000 824.000
80.16000 829.000
80.18000 786.000
80.20000 780.000
80.22000 801.000
80.24000 825.000
80.26000 792.000
80.28000 746.000
80.30000 735.000
80.32000 720.000
80.34000 724.000
80.36000 738.000
80.38000 705.000
80.40000 697.000
80.42000 624.000
80.44000 679.000
80.46000 657.000
80.48000 645.000
80.50000 590.000
80.52000 606.000
80.54000 623.000
80.56000 627.000
80.58000 589.000
80.60000 612.000
80.62000 595.000
80.64000 587.000
80.66000 549.000
80.68000 551.000
80.70000 543.000
80.72000 572.000
80.74000 516.000
80.76000 538.000
80.78000 523.000
80.80000 531.000
80.82000 464.000
80.84000 461.000
80.86000 466.000
80.88000 477.000
80.90000 492.000
80.92000 485.000
80.94000 462.000
80.96000 472.000
80.98000 467.000
81.00000 431.000
81.02000 472.000
81.04000 438.000
81.06000 444.000
81.08000 459.000
81.10000 449.000
81.12000 423.000
81.14000 442.000
81.16000 450.000
81.18000 429.000
81.20000 408.000
81.22000 422.000
81.24000 420.000
81.26000 443.000
81.28000 424.000
81.30000 421.000
81.32000 452.000
81.34000 414.000
81.36000 412.000
81.38000 446.000
81.40000 472.000
81.42000 418.000
81.44000 436.000
81.46000 408.000
81.48000 411.000
81.50000 411.000
81.52000 455.000
81.54000 418.000
81.56000 434.000
81.58000 446.000
81.60000 430.000
81.62000 405.000
81.64000 434.000
81.66000 397.000
81.68000 410.000
81.70000 446.000
81.72000 427.000
81.74000 460.000
81.76000 438.000
81.78000 451.000
81.80000 421.000
81.82000 418.000
81.84000 428.000
81.86000 450.000
81.88000 453.000
81.90000 409.000
81.92000 437.000
81.94000 449.000
81.96000 447.000
81.98000 434.000
82.00000 456.000
82.02000 457.000
82.04000 438.000
82.06000 413.000
82.08000 414.000
82.10000 452.000
82.12000 451.000
82.14000 470.000
82.16000 462.000
82.18000 461.000
82.20000 475.000
82.22000 448.000
82.24000 442.000
82.26000 440.000
82.28000 454.000
82.30000 458.000
82.32000 425.000
82.34000 446.000
82.36000 469.000
82.38000 450.000
82.40000 464.000
82.42000 424.000
82.44000 412.000
82.46000 420.000
82.48000 459.000
82.50000 433.000
82.52000 442.000
82.54000 404.000
82.56000 433.000
82.58000 417.000
82.60000 397.000
82.62000 415.000
82.64000 413.000
82.66000 416.000
82.68000 407.000
82.70000 434.000
82.72000 394.000
82.74000 394.000
82.76000 417.000
82.78000 387.000
82.80000 397.000
82.82000 378.000
82.84000 396.000
82.86000 378.000
82.88000 388.000
82.90000 392.000
82.92000 390.000
82.94000 404.000
82.96000 374.000
82.98000 377.000
83.00000 401.000
83.02000 370.000
83.04000 404.000
83.06000 365.000
83.08000 340.000
83.10000 399.000
83.12000 398.000
83.14000 369.000
83.16000 338.000
83.18000 356.000
83.20000 378.000
83.22000 367.000
83.24000 355.000
83.26000 368.000
83.28000 375.000
83.30000 396.000
83.32000 368.000
83.34000 356.000
83.36000 348.000
83.38000 389.000
83.40000 362.000
83.42000 353.000
83.44000 359.000
83.46000 361.000
83.48000 362.000
83.50000 384.000
83.52000 358.000
83.54000 337.000
83.56000 353.000
83.58000 385.000
83.60000 345.000
83.62000 354.000
83.64000 379.000
83.66000 378.000
83.68000 349.000
83.70000 364.000
83.72000 380.000
83.74000 356.000
83.76000 343.000
83.78000 391.000
83.80000 370.000
83.82000 345.000
83.84000 331.000
83.86000 365.000
83.88000 323.000
83.90000 371.000
83.92000 324.000
83.94000 359.000
83.96000 357.000
83.98000 355.000
84.00000 369.000
84.02000 367.000
84.04000 350.000
84.06000 364.000
84.08000 355.000
84.10000 341.000
84.12000 336.000
84.14000 343.000
84.16000 389.000
84.18000 361.000
84.20000 403.000
84.22000 344.000
84.24000 336.000
84.26000 360.000
84.28000 337.000
84.30000 362.000
84.32000 355.000
84.34000 335.000
84.36000 351.000
84.38000 366.000
84.40000 353.000
84.42000 335.000
84.44000 368.000
84.46000 382.000
84.48000 353.000
84.50000 340.000
84.52000 334.000
84.54000 347.000
84.56000 325.000
84.58000 333.000
84.60000 359.000
84.62000 351.000
84.64000 334.000
84.66000 344.000
84.68000 346.000
84.70000 338.000
84.72000 316.000
84.74000 346.000
84.76000 353.000
84.78000 366.000
84.80000 344.000
84.82000 369.000
84.84000 350.000
84.86000 347.000
84.88000 340.000
84.90000 364.000
84.92000 332.000
84.94000 339.000
84.96000 356.000
84.98000 352.000
85.00000 359.000
85.02000 347.000
85.04000 351.000
85.06000 337.000
85.08000 346.000
85.10000 362.000
85.12000 379.000
85.14000 341.000
85.16000 327.000
85.18000 345.000
85.20000 368.000
85.22000 356.000
85.24000 333.000
85.26000 341.000
85.28000 370.000
85.30000 346.000
85.32000 359.000
85.34000 361.000
85.36000 370.000
85.38000 356.000
85.40000 359.000
85.42000 357.000
85.44000 329.000
85.46000 363.000
85.48000 348.000
85.50000 334.000
85.52000 362.000
85.54000 331.000
85.56000 367.000
85.58000 354.000
85.60000 360.000
85.62000 372.000
85.64000 323.000
85.66000 319.000
85.68000 346.000
85.70000 326.000
85.72000 351.000
85.74000 359.000
85.76000 345.000
85.78000 348.000
85.80000 342.000
85.82000 356.000
85.84000 343.000
85.86000 359.000
85.88000 345.000
85.90000 362.000
85.92000 367.000
85.94000 380.000
85.96000 381.000
85.98000 375.000
86.00000 352.000
86.02000 382.000
86.04000 367.000
86.06000 343.000
86.08000 349.000
86.10000 363.000
86.12000 358.000
86.14000 362.000
86.16000 386.000
86.18000 352.000
86.20000 377.000
86.22000 358.000
86.24000 390.000
86.26000 364.000
86.28000 378.000
86.30000 399.000
86.32000 410.000
86.34000 379.000
86.36000 404.000
86.38000 392.000
86.40000 391.000
86.42000 418.000
86.44000 409.000
86.46000 390.000
86.48000 380.000
86.50000 391.000
86.52000 416.000
86.54000 426.000
86.56000 400.000
86.58000 401.000
86.60000 434.000
86.62000 406.000
86.64000 415.000
86.66000 404.000
86.68000 434.000
86.70000 427.000
86.72000 407.000
86.74000 424.000
86.76000 450.000
86.78000 438.000
86.80000 444.000
86.82000 440.000
86.84000 489.000
86.86000 452.000
86.88000 444.000
86.90000 468.000
86.92000 442.000
86.94000 462.000
86.96000 445.000
86.98000 453.000
87.00000 479.000
87.02000 486.000
87.04000 506.000
87.06000 489.000
87.08000 512.000
87.10000 474.000
87.12000 477.000
87.14000 506.000
87.16000 507.000
87.18000 509.000
87.20000 535.000
87.22000 527.000
87.24000 537.000
87.26000 520.000
87.28000 537.000
87.30000 555.000
87.32000 590.000
87.34000 581.000
87.36000 594.000
87.38000 538.000
87.40000 561.000
87.42000 592.000
87.44000 610.000
87.46000 620.000
87.48000 574.000
87.50000 554.000
87.52000 583.000
87.54000 593.000
87.56000 639.000
87.58000 603.000
87.60000 574.000
87.62000 599.000
87.64000 551.000
87.66000 588.000
87.68000 573.000
87.70000 562.000
87.72000 583.000
87.74000 605.000
87.76000 576.000
87.78000 568.000
87.80000 563.000
87.82000 550.000
87.84000 569.000
87.86000 573.000
87.88000 567.000
87.90000 569.000
87.92000 552.000
87.94000 578.000
87.96000 535.000
87.98000 536.000
88.00000 524.000
88.02000 520.000
88.04000 546.000
88.06000 535.000
88.08000 544.000
88.10000 558.000
88.12000 551.000
88.14000 521.000
88.16000 564.000
88.18000 501.000
88.20000 527.000
88.22000 536.000
88.24000 557.000
88.26000 530.000
88.28000 553.000
88.30000 514.000
88.32000 515.000
88.34000 544.000
88.36000 552.000
88.38000 543.000
88.40000 481.000
88.42000 500.000
88.44000 518.000
88.46000 504.000
88.48000 488.000
88.50000 489.000
88.52000 480.000
88.54000 527.000
88.56000 491.000
88.58000 472.000
88.60000 499.000
88.62000 446.000
88.64000 474.000
88.66000 503.000
88.68000 445.000
88.70000 450.000
88.72000 507.000
88.74000 453.000
88.76000 442.000
88.78000 460.000
88.80000 430.000
88.82000 435.000
88.84000 420.000
88.86000 404.000
88.88000 424.000
88.90000 419.000
88.92000 397.000
88.94000 442.000
88.96000 411.000
88.98000 451.000
89.00000 419.000
89.02000 397.000
89.04000 400.000
89.06000 404.000
89.08000 441.000
89.10000 388.000
89.12000 413.000
89.14000 426.000
89.16000 430.000
89.18000 401.000
89.20000 409.000
89.22000 399.000
89.24000 379.000
89.26000 365.000
89.28000 386.000
89.30000 398.000
89.32000 421.000
89.34000 401.000
89.36000 396.000
89.38000 408.000
89.40000 385.000
89.42000 370.000
89.44000 404.000
89.46000 373.000
89.48000 410.000
89.50000 436.000
89.52000 430.000
89.54000 404.000
89.56000 374.000
89.58000 375.000
89.60000 403.000
89.62000 387.000
89.64000 353.000
89.66000 356.000
89.68000 353.000
89.70000 417.000
89.72000 395.000
89.74000 414.000
89.76000 406.000
89.78000 371.000
89.80000 403.000
89.82000 379.000
89.84000 367.000
89.86000 404.000
89.88000 405.000
89.90000 387.000
89.92000 444.000
89.94000 437.000
89.96000 417.000
89.98000 437.000
90.00000 425.000
